<?xml version="1.0" encoding="UTF-8"?>
<xrdMeasurements xmlns="http://www.xrdml.com/XRDMeasurement/1.5" xmlns:xsi="http://www.w3.org/2001/XMLSchema-instance" xsi:schemaLocation="http://www.xrdml.com/XRDMeasurement/1.5 http://www.xrdml.com/XRDMeasurement/1.5/XRDMeasurement.xsd" status="Completed">
	<comment>
		<entry>Configuration=OEC Motorized Platform, Owner=yansari, Creation date=2/26/2007 1:45:53 PM</entry>
		<entry>Goniometer=PW3050/60 (Theta/Theta); Minimum step size 2Theta:0.001; Minimum step size Omega:0.001</entry>
		<entry>Sample stage=Open Eulerian Cradle (manual Z); Minimum step size Phi:0.01; Minimum step size Chi:0.01</entry>
		<entry>Diffractometer system=XPERT-PRO</entry>
		<entry>Measurement program=C:\PANalytical\Data Collector\Programs\eschlerc\PROPEL-1K\20-70deg_40min_mechanochemical_synth_char.xrdmp, Identifier={7F0145CF-481E-4DB5-821B-12BCA6FF3B92}</entry>
		<entry>20-70deg, 40min for mechanochemical synthesis characterization</entry>
		<entry>PHD Lower Level = 6.20 (keV), PHD Upper Level = 16.10 (keV)</entry>
	</comment>
	<xrdMeasurement sampleMode="Reflection" measurementType="Scan" status="Completed">
		<usedWavelength intended="K-Alpha 1">
			<kAlpha1 unit="Angstrom">1.540598</kAlpha1>
			<kAlpha2 unit="Angstrom">1.544426</kAlpha2>
			<kBeta unit="Angstrom">1.392250</kBeta>
			<ratioKAlpha2KAlpha1>0.500000</ratioKAlpha2KAlpha1>
		</usedWavelength>
		<incidentBeamPath>
			<radius unit="mm">240.000</radius>
			<xRayTube>
				<tension unit="kV">45</tension>
				<current unit="mA">40</current>
				<anodeMaterial>Cu</anodeMaterial>
			</xRayTube>
			<divergenceSlit xsi:type="fixedDivergenceSlitType">
				<angle unit="deg">0.500</angle>
			</divergenceSlit>
		</incidentBeamPath>
		<diffractedBeamPath>
			<radius unit="mm">240.000</radius>
			<receivingSlit>
				<height unit="mm">0.100</height>
			</receivingSlit>
		</diffractedBeamPath>
		<scan appendNumber="0" scanAxis="Gonio" mode="Continuous" status="Completed">
			<header>
				<startTimeStamp>2025-02-18T19:07:39--05:00</startTimeStamp>
				<author>
					<name>XRAY04</name>
				</author>
				<source>
					<applicationSoftware version="5.1.0">HighScore Plus</applicationSoftware>
				</source>
			</header>
			<dataPoints>
				<positions axis="2Theta" unit="deg">
					<startPosition>20.00835563</startPosition>
					<endPosition>69.98835563</endPosition>
				</positions>
				<commonCountingTime unit="seconds">99.695</commonCountingTime>
				<intensities unit="counts">250 513 351 287 315 353 403 359 371 257 368 277 311 280 330 439 374 351 312 307 301 311 347 375 437 403 338 315 330 352 393 381 286 318 340 395 310 313 375 349 282 289 285 360 315 357 301 283 311 380 371 258 360 162 215 298 295 277 449 245 228 208 257 247 266 297 400 322 263 277 311 256 273 261 323 256 284 425 393 312 237 248 263 227 368 427 301 313 312 239 216 243 274 287 235 295 328 267 218 223 255 302 271 233 222 226 182 160 241 291 291 138 368 235 267 316 134 278 216 171 311 246 313 282 211 224 297 310 258 273 240 238 234 194 240 240 241 286 263 178 101 198 303 274 168 186 243 160 159 260 247 182 162 235 188 150 200 166 274 355 316 343 371 397 377 353 251 325 285 214 278 228 226 275 195 249 371 170 252 201 232 205 225 205 242 265 134 224 189 208 207 122 183 165 221 261 251 221 262 236 183 157 210 275 244 175 239 331 258 208 206 223 213 234 237 284 143 212 202 254 263 247 263 152 240 185 189 109 259 182 278 112 270 243 163 237 140 278 209 215 218 221 183 131 128 184 181 220 207 165 184 187 202 221 155 180 176 155 175 176 173 219 211 161 202 214 194 195 199 141 121 142 212 164 156 200 82 125 202 127 147 125 193 164 224 239 178 165 217 92 207 264 229 250 294 174 281 213 272 208 177 221 181 77 159 171 207 262 239 126 84 124 222 239 201 186 180 208 217 221 258 253 235 266 239 185 182 210 257 249 237 246 206 202 262 224 210 236 169 197 192 237 305 193 256 192 238 180 172 160 202 199 197 188 281 197 281 269 239 231 181 232 233 335 285 198 258 312 283 318 383 349 362 359 338 370 448 556 499 503 580 632 731 742 682 839 886 992 1129 1105 1233 1308 1602 1579 1563 1762 1787 1674 1670 1557 1423 1335 1175 1183 958 888 837 790 625 563 530 537 518 431 398 319 332 343 414 346 315 340 328 315 277 334 326 318 331 275 219 259 317 282 277 292 276 279 264 286 381 313 281 237 193 178 266 241 195 257 203 216 233 327 195 269 245 248 195 216 247 164 171 243 283 160 230 173 289 255 289 297 227 212 190 202 206 232 187 306 236 219 177 197 210 227 228 182 206 236 253 277 267 272 281 273 275 241 213 210 238 246 273 236 257 209 246 207 316 301 353 293 251 256 334 211 248 230 322 172 212 314 199 328 208 256 192 220 182 184 168 189 166 172 133 277 279 218 259 240 256 236 257 240 243 237 277 248 216 207 217 202 218 244 170 174 196 216 179 256 252 246 266 271 277 270 249 186 183 244 182 142 261 238 252 277 262 174 124 194 225 266 205 217 282 280 269 306 309 220 201 206 246 248 230 137 153 193 194 255 255 201 253 220 189 253 240 225 241 168 181 201 253 244 221 217 279 265 233 269 248 246 258 246 238 285 339 292 249 227 311 256 367 300 304 376 361 425 368 412 477 530 448 474 533 554 556 563 546 597 562 509 481 453 501 456 395 376 376 346 282 295 289 254 219 260 267 284 267 230 230 254 283 295 293 230 226 259 213 209 171 178 191 218 169 173 299 295 246 279 232 224 200 275 172 160 176 155 283 359 247 171 229 297 171 211 181 117 202 238 270 214 206 245 176 266 207 209 245 239 221 231 229 217 230 243 183 155 224 248 165 186 213 186 257 216 255 243 251 129 250 279 261 214 190 291 215 119 186 178 241 275 283 248 220 246 324 271 286 251 201 229 248 249 242 250 258 290 240 240 236 215 207 271 292 328 282 219 272 276 238 286 346 293 223 288 254 279 314 284 330 361 335 271 266 243 255 292 239 281 314 242 304 290 340 169 220 251 237 319 263 278 283 321 363 204 194 361 284 289 262 343 345 258 286 225 291 278 207 230 317 289 309 318 321 260 229 199 201 258 298 300 213 278 304 298 331 325 305 243 252 243 259 264 283 218 293 266 365 313 337 339 261 349 269 258 295 312 209 365 357 227 293 316 253 193 292 258 241 382 292 239 217 249 314 296 299 384 314 287 255 254 317 313 272 273 279 249 255 281 257 239 251 263 309 361 340 316 264 325 365 341 317 287 261 346 340 340 288 317 299 258 370 289 337 328 416 369 310 284 293 261 303 289 276 316 314 310 205 318 336 300 307 294 279 255 255 251 242 288 283 233 282 233 236 236 231 284 308 311 320 309 317 276 277 286 246 289 275 256 286 290 287 262 308 285 305 212 256 216 281 290 280 359 326 223 222 246 227 258 279 258 237 265 279 208 272 260 244 240 257 292 256 289 267 233 313 285 229 246 218 222 232 247 282 314 259 228 270 277 239 267 276 285 276 225 254 299 316 290 268 320 306 189 255 282 294 258 298 267 348 200 280 199 320 267 217 262 233 218 311 302 265 266 273 260 279 242 225 287 271 286 238 267 258 261 229 223 257 258 232 281 294 256 247 258 260 250 226 246 305 304 259 278 319 271 249 298 252 248 213 217 294 223 266 257 176 212 259 311 185 211 230 213 235 237 257 238 281 262 317 205 232 277 249 250 301 239 267 300 294 206 215 208 248 297 292 279 294 272 289 302 279 290 261 249 227 235 235 315 298 240 209 252 360 341 276 280 257 229 302 235 233 298 295 252 268 221 239 312 295 214 264 348 257 287 284 291 336 311 289 289 323 283 301 248 242 286 268 304 307 287 267 270 253 273 291 262 277 253 277 272 263 258 239 276 248 312 286 281 279 222 240 219 266 246 330 291 251 246 360 244 355 292 362 386 235 203 217 246 236 228 257 214 264 242 252 228 205 250 265 300 251 241 293 342 298 294 280 261 214 247 294 319 314 313 300 264 250 179 225 310 318 263 280 293 279 275 268 289 254 287 252 203 212 293 231 243 305 210 262 191 305 184 229 315 275 245 272 343 262 300 342 328 323 276 281 269 284 285 263 253 227 313 222 278 346 351 316 272 327 276 253 328 374 302 262 267 325 315 295 269 295 302 264 301 275 283 331 301 318 356 364 337 328 280 251 370 296 301 373 322 336 331 353 357 350 285 345 355 315 404 288 331 341 375 335 349 308 347 360 366 365 414 389 361 434 381 337 371 377 365 403 452 452 418 401 431 405 380 338 378 447 431 395 392 435 443 400 403 423 355 355 387 367 423 422 437 387 318 364 359 410 384 403 460 394 439 446 429 416 476 463 462 509 472 490 521 473 522 559 585 608 613 614 657 766 776 862 956 1047 1171 1262 1463 1617 1699 1923 2321 2753 3183 3622 4071 4641 5118 5493 5691 5626 5598 5422 5288 4991 4778 4352 4007 3679 3349 2972 2676 2252 1983 1691 1706 1392 1340 1110 1098 1093 957 867 872 776 711 638 562 608 566 498 500 486 448 427 428 416 435 407 379 332 355 385 357 361 367 354 341 314 335 341 300 335 292 310 271 266 307 307 294 274 350 324 327 322 276 338 367 266 303 235 281 381 298 289 270 276 250 290 308 282 286 319 312 290 217 247 308 288 304 277 253 288 351 332 263 249 262 256 251 255 236 244 271 258 272 265 273 317 332 280 315 291 300 294 292 286 251 254 234 269 305 312 290 168 284 223 234 259 189 330 206 304 268 202 243 285 272 316 228 247 201 260 206 278 261 217 229 315 320 295 283 235 230 267 326 304 258 289 271 261 232 256 250 252 234 231 213 279 296 206 214 272 245 274 218 300 241 300 312 321 253 179 206 280 248 300 223 278 289 271 266 296 280 268 276 277 272 265 231 295 276 298 307 302 287 252 218 242 262 283 300 282 253 282 289 269 275 270 225 213 273 275 317 314 325 330 315 251 242 278 307 274 299 308 276 271 223 257 287 291 236 259 253 255 209 256 271 276 205 221 276 252 300 297 251 283 270 343 242 271 307 304 318 323 294 254 259 237 261 229 259 294 281 264 278 270 238 253 269 276 270 235 291 294 256 231 225 261 309 311 267 262 284 273 287 239 249 196 290 302 323 307 272 276 248 191 269 248 285 330 333 292 252 262 255 268 278 325 270 334 303 259 294 325 284 259 278 252 240 232 282 332 298 257 297 294 266 240 244 289 303 336 310 286 264 265 366 323 290 242 222 193 307 329 281 222 338 342 260 258 239 286 224 360 365 266 252 231 338 306 304 287 256 314 282 282 322 336 297 215 265 272 332 317 239 230 265 254 247 265 222 213 247 298 292 313 276 309 315 349 280 243 304 247 271 290 293 289 285 314 253 323 297 253 208 335 281 316 295 294 339 194 299 351 352 337 353 309 325 321 291 299 310 260 330 332 281 291 391 367 314 308 283 278 309 281 282 330 352 289 313 368 349 323 310 238 252 278 341 295 277 312 295 303 392 343 289 320 300 351 343 377 433 363 383 408 270 303 399 389 349 405 481 445 498 514 488 460 557 591 609 623 538 576 554 606 679 704 709 706 695 720 655 607 595 554 561 529 476 443 455 459 451 461 459 419 398 390 394 407 344 342 368 309 378 344 285 327 366 294 357 336 305 369 306 222 291 317 325 326 341 335 343 350 316 337 281 310 298 286 301 326 308 281 302 329 272 293 258 286 307 262 272 290 253 281 284 291 282 293 282 300 304 300 300 309 289 296 301 300 287 295 299 280 228 236 324 333 264 303 338 285 313 258 308 306 260 313 276 255 230 256 294 265 218 209 348 324 304 291 268 245 245 249 252 247 272 240 222 309 341 300 286 297 280 242 291 282 278 216 256 250 304 291 241 315 310 330 329 316 366 347 269 276 320 310 276 341 362 418 373 321 298 379 336 282 293 310 306 281 275 326 349 314 306 281 340 315 281 293 275 247 279 368 344 303 341 286 313 316 245 243 259 280 297 327 291 240 275 273 277 197 229 225 250 242 323 303 310 246 306 240 318 242 316 257 331 336 251 209 310 278 291 339 272 265 325 276 289 260 247 246 237 215 214 286 363 311 282 324 325 294 273 243 217 250 299 311 265 250 279 302 289 289 274 300 300 243 268 265 256 244 300 312 323 240 238 214 242 237 251 268 334 312 312 356 265 275 251 248 284 237 286 204 236 251 280 295 295 266 257 229 238 230 261 315 266 269 254 301 308 292 267 248 247 260 294 318 259 226 279 317 238 299 299 267 272 339 281 272 161 239 330 245 258 217 254 230 279 277 305 281 294 193 306 232 327 277 231 218 213 289 262 279 245 320 283 196 253 275 230 261 304 300 243 260 255 252 288 273 276 297 286 272 224 189 223 267 256 254 264 265 228 249 298 226 274 267 239 283 289 309 302 290 273 248 276 159 294 262 248 215 294 301 302 297 260 295 239 251 238 277 243 301 316 282 273 319 290 234 260 302 277 249 290 265 298 325 272 271 270 250 229 212 226 266 261 281 264 264 239 209 228 288 303 244 210 213 209 300 266 294 297 274 257 290 250 228 208 176 218 201 235 292 280 274 305 392 369 307 290 257 252 253 171 256 252 257 279 272 250 231 221 240 234 247 262 250 271 259 231 232 192 218 266 221 269 260 212 225 290 242 269 280 256 333 277 252 231 199 253 256 286 232 272 280 295 242 233 291 277 275 352 248 200 280 249 211 291 286 245 257 227 275 288 249 244 235 246 245 237 259 224 241 282 307 271 267 304 265 279 269 263 274 228 191 283 271 267 235 233 235 216 212 276 263 189 269 284 183 266 260 254 210 258 302 195 242 267 293 243 188 293 312 279 241 244 292 367 240 272 207 216 267 293 288 255 153 224 253 206 219 252 252 237 203 205 265 265 238 221 277 294 240 242 252 270 248 303 274 279 277 262 189 228 321 277 242 305 378 266 291 229 247 300 247 267 221 337 256 209 283 335 264 251 249 272 170 255 279 238 244 244 252 277 262 251 261 267 278 268 278 295 294 276 225 207 229 299 279 256 242 281 276 256 296 293 283 245 293 260 263 264 203 276 212 259 269 331 356 319 378 296 374 332 355 300 384 386 433 343 418 456 487 465 443 524 542 482 497 606 589 641 692 712 731 720 703 716 699 651 686 717 727 693 711 664 661 706 599 582 573 474 473 498 458 455 445 441 424 314 308 327 385 318 440 350 323 389 372 313 301 313 309 316 310 324 360 304 303 259 276 300 315 274 231 254 270 243 234 222 173 198 214 258 293 321 281 262 228 245 249 243 249 235 214 216 281 257 223 192 224 212 275 210 172 172 243 267 230 220 205 247 315 207 280 235 198 175 280 347 245 193 204 266 310 251 235 264 291 270 272 266 273 278 244 253 249 248 285 281 273 248 187 190 218 223 229 211 220 255 248 219 241 283 306 238 202 199 244 226 259 246 232 294 262 252 205 265 208 270 277 203 241 247 230 181 204 176 213 268 290 248 174 220 238 262 268 267 226 238 221 244 278 228 206 214 247 254 223 256 212 208 200 210 236 240 273 227 225 274 215 161 210 219 219 214 227 294 279 233 169 162 249 214 198 173 252 260 255 227 252 284 185 196 205 171 250 199 249 260 237 231 234 199 215 248 268 266 217 250 262 284 249 256 234 205 223 235 213 215 221 236 226 216 246 257 248 238 185 184 183 261 259 206 232 258 265 273 236 231 274 173 143 258 261 239 240 268 245 190 173 224 252 222 210 192 185 162 204 233 186 219 239 221 226 222 215 202 166 219 213 211 252 237 241 299 233 189 217 213 226 242 251 245 249 284 210 203 220 200 207 238 250</intensities>
			</dataPoints>
			<nonAmbientPoints type="Temperature" unit="K">
				<measurementTimes unit="seconds" deltaTime="1">0</measurementTimes>
				<nonAmbientValues>298.150</nonAmbientValues>
			</nonAmbientPoints>
		</scan>
	</xrdMeasurement>
</xrdMeasurements>
