<?xml version="1.0" encoding="UTF-8"?>
<xrdMeasurements xmlns="http://www.xrdml.com/XRDMeasurement/1.5" xmlns:xsi="http://www.w3.org/2001/XMLSchema-instance" xsi:schemaLocation="http://www.xrdml.com/XRDMeasurement/1.5 http://www.xrdml.com/XRDMeasurement/1.5/XRDMeasurement.xsd" status="Completed">
	<comment>
		<entry>Configuration=OEC Motorized Platform, Owner=yansari, Creation date=2/26/2007 1:45:53 PM</entry>
		<entry>Goniometer=PW3050/60 (Theta/Theta); Minimum step size 2Theta:0.001; Minimum step size Omega:0.001</entry>
		<entry>Sample stage=Open Eulerian Cradle (manual Z); Minimum step size Phi:0.01; Minimum step size Chi:0.01</entry>
		<entry>Diffractometer system=XPERT-PRO</entry>
		<entry>Measurement program=C:\PANalytical\Data Collector\Programs\eschlerc\PROPEL-1K\20-70deg_40min_mechanochemical_synth_char.xrdmp, Identifier={7F0145CF-481E-4DB5-821B-12BCA6FF3B92}</entry>
		<entry>20-70deg, 40min for mechanochemical synthesis characterization</entry>
		<entry>PHD Lower Level = 6.20 (keV), PHD Upper Level = 16.10 (keV)</entry>
	</comment>
	<xrdMeasurement sampleMode="Reflection" measurementType="Scan" status="Completed">
		<usedWavelength intended="K-Alpha 1">
			<kAlpha1 unit="Angstrom">1.540598</kAlpha1>
			<kAlpha2 unit="Angstrom">1.544426</kAlpha2>
			<kBeta unit="Angstrom">1.392250</kBeta>
			<ratioKAlpha2KAlpha1>0.500000</ratioKAlpha2KAlpha1>
		</usedWavelength>
		<incidentBeamPath>
			<radius unit="mm">240.000</radius>
			<xRayTube>
				<tension unit="kV">45</tension>
				<current unit="mA">40</current>
				<anodeMaterial>Cu</anodeMaterial>
			</xRayTube>
			<divergenceSlit xsi:type="fixedDivergenceSlitType">
				<angle unit="deg">0.500</angle>
			</divergenceSlit>
		</incidentBeamPath>
		<diffractedBeamPath>
			<radius unit="mm">240.000</radius>
			<receivingSlit>
				<height unit="mm">0.100</height>
			</receivingSlit>
		</diffractedBeamPath>
		<scan appendNumber="0" scanAxis="Gonio" mode="Continuous" status="Completed">
			<header>
				<startTimeStamp>2025-02-14T14:48:40--05:00</startTimeStamp>
				<author>
					<name>XRAY03</name>
				</author>
				<source>
					<applicationSoftware version="5.1.0">HighScore Plus</applicationSoftware>
				</source>
			</header>
			<dataPoints>
				<positions axis="2Theta" unit="deg">
					<startPosition>20.00835563</startPosition>
					<endPosition>69.98835563</endPosition>
				</positions>
				<commonCountingTime unit="seconds">99.695</commonCountingTime>
				<intensities unit="counts">7095 6987 7072 7032 6998 7115 6995 7088 6841 7040 7011 7168 7136 7125 7097 7049 7048 7096 6957 7064 6951 6877 6890 6872 6930 6928 6930 6980 6917 6929 6966 6821 6784 6961 7084 6882 6762 6801 6794 6846 6802 6890 6893 6860 6803 6802 6719 6829 6735 6760 6809 6708 6869 6861 6570 6635 6764 6704 6658 6743 6763 6694 6726 6721 6767 6683 6761 6657 6616 6739 6733 6659 6610 6622 6729 6605 6554 6605 6664 6640 6640 6701 6635 6554 6525 6573 6643 6604 6587 6515 6402 6512 6614 6438 6473 6496 6426 6511 6552 6451 6497 6589 6540 6392 6480 6547 6517 6522 6419 6422 6348 6465 6454 6463 6251 6412 6450 6233 6480 6392 6424 6310 6362 6296 6325 6327 6416 6394 6278 6350 6333 6470 6229 6372 6368 6308 6309 6369 6399 6437 6412 6325 6276 6310 6306 6265 6181 6275 6357 6440 6370 6365 6362 6319 6322 6424 6507 6440 6432 6481 6416 6490 6438 6413 6376 6400 6360 6411 6483 6342 6522 6577 6654 6575 6551 6586 6652 6695 6688 6654 6776 6781 7032 6796 7036 6927 7089 7147 7149 7305 7470 7449 7573 7725 7801 8056 8225 8307 8374 8457 8740 9089 9374 9531 9689 9859 10022 10229 10428 10527 10523 10532 10445 10413 10204 10061 9918 9694 9572 9400 9240 9073 8810 8659 8551 8499 8324 8242 8027 7793 7858 7710 7521 7767 7391 7458 7185 7198 7051 7122 7094 6882 6855 6881 6780 6766 6798 6589 6511 6508 6456 6487 6502 6444 6400 6396 6367 6310 6300 6229 6234 6230 6219 6226 6303 6249 6107 6070 6127 6090 6099 6185 6115 6024 5960 6091 5961 6016 5979 6136 5975 6069 6077 6035 6007 6038 6078 5976 6128 5940 6003 5949 5792 6093 5791 5855 5922 6003 5949 5905 5930 5924 5891 5968 5909 5866 5955 5938 5895 5885 5875 5886 5785 5810 5889 5839 5785 5737 5847 5929 5849 5876 5990 5960 5909 5916 5809 5803 5899 5947 5967 5990 5840 5834 5848 6037 5957 5835 5739 5912 5817 5866 5947 5900 5987 5890 5738 5956 5854 5918 5918 5796 5751 5896 6038 5942 5983 5770 5843 5917 5869 5822 5729 5905 5794 5734 5786 5806 5842 5862 5772 5738 5739 5753 5757 5715 5811 5862 5747 5729 5741 5776 5827 5721 5727 5660 5715 5727 5731 5642 5777 5738 5744 5623 5655 5708 5697 5843 5676 5741 5753 5722 5634 5679 5743 5626 5739 5712 5645 5741 5678 5763 5600 5745 5707 5637 5567 5586 5556 5770 5613 5619 5656 5623 5650 5719 5747 5760 5674 5636 5624 5629 5742 5744 5674 5645 5681 5715 5688 5650 5582 5559 5606 5684 5704 5616 5640 5581 5544 5545 5494 5523 5580 5627 5615 5536 5531 5584 5615 5669 5722 5561 5572 5578 5486 5600 5644 5474 5619 5625 5443 5597 5531 5502 5633 5573 5432 5476 5607 5623 5551 5546 5647 5629 5545 5559 5551 5587 5552 5601 5676 5594 5607 5652 5483 5393 5524 5511 5570 5571 5506 5523 5569 5529 5524 5597 5566 5590 5559 5563 5571 5529 5562 5681 5702 5627 5685 5592 5538 5485 5497 5583 5569 5736 5601 5619 5469 5553 5684 5531 5538 5413 5484 5383 5528 5503 5504 5499 5486 5426 5495 5407 5492 5404 5445 5442 5416 5430 5366 5321 5355 5397 5395 5344 5365 5408 5437 5405 5384 5366 5278 5246 5415 5367 5391 5371 5363 5404 5464 5428 5371 5269 5434 5372 5295 5287 5312 5411 5529 5525 5289 5348 5392 5283 5301 5211 5291 5299 5339 5258 5315 5263 5305 5354 5380 5277 5210 5262 5233 5375 5371 5334 5262 5262 5339 5312 5309 5201 5144 5259 5353 5269 5281 5270 5196 5200 5261 5279 5232 5306 5337 5271 5228 5190 5167 5347 5259 5156 5195 5170 5346 5144 5170 5210 5216 5114 5148 5065 5208 5331 5224 5214 5192 5168 5181 5224 5295 5170 5141 5186 5229 5268 5163 5093 5156 5202 5193 5063 5193 5129 5111 5197 5243 5247 5150 5180 5161 5116 5192 5198 5212 5205 5284 5238 5121 5180 5194 5161 5046 5095 4973 5185 5145 5029 5152 5217 5170 5157 5147 5152 5198 5192 5168 5184 5216 5220 5051 5201 5105 5134 5224 5019 5194 5139 5155 5231 5109 5151 5124 5127 5152 5211 5233 5231 5263 5259 5185 5110 5184 5263 5223 5269 5189 5179 5144 5177 5241 5133 5204 5274 5164 5215 5212 5162 5177 5233 5237 5194 5327 5377 5220 5290 5223 5167 5280 5334 5228 5267 5247 5220 5313 5374 5474 5389 5180 5300 5366 5356 5501 5459 5419 5459 5454 5459 5435 5378 5398 5385 5418 5430 5460 5474 5434 5467 5496 5572 5578 5566 5540 5460 5492 5560 5527 5489 5528 5479 5361 5358 5423 5445 5366 5401 5495 5480 5392 5207 5281 5365 5342 5214 5334 5320 5241 5262 5237 5342 5336 5209 5353 5189 5068 5084 5205 5290 5363 5270 5258 5354 5346 5312 5341 5251 5223 5226 5157 5084 5202 5326 5268 5153 5223 5283 5165 5158 5196 5184 5169 5185 5209 5206 5239 5227 5277 5245 5234 5149 5106 5116 5127 5113 5123 5151 5118 5075 5188 5081 5076 5083 5146 5131 5008 5019 5023 5132 5052 5041 5052 5116 5189 5053 4986 5090 5029 5093 4980 5040 5027 5004 5046 4978 5020 5044 5058 5035 5066 5012 5022 4913 4902 4999 4993 4951 5068 4966 4965 5045 4964 4941 4923 4924 4928 4946 4939 4899 4883 4923 4950 4931 4965 4984 5034 4972 4879 4868 4922 4901 4854 4848 4889 4959 4955 4892 4883 4787 4923 4852 4977 5050 4936 4980 5094 4903 4809 4887 4946 4913 4920 4905 4940 4898 4918 4998 4893 4919 4889 4884 4911 4896 4914 4881 4856 4831 4843 4942 4927 4905 4877 4861 4932 4908 4850 4862 4904 4917 4912 4905 4819 4776 4711 4789 4868 4844 4931 4959 4908 4783 4816 4752 4916 4948 4817 4871 4846 4809 4888 4860 4835 4936 4813 4786 4947 4787 4804 4863 4895 4926 4887 4853 4777 4878 4844 4909 4913 4856 4898 4877 4824 4871 4928 4907 4909 4908 4868 4815 4893 4890 4798 4861 4948 4869 4817 4893 4958 4926 4938 4836 4945 4784 4936 4943 4826 4952 4931 4934 4856 4837 4907 4853 4902 4919 4869 4971 4845 4971 4962 4851 4929 4842 4972 4945 4913 4953 4929 4907 4846 4968 4905 5019 4958 4943 4952 4951 4933 4891 4963 5008 4938 4866 4886 4875 4798 4889 4964 4932 4909 4836 4822 4791 4875 4874 4786 4894 4959 4908 4887 4853 4974 4905 4777 4914 4862 4923 5036 4936 4887 4820 4994 4887 4994 4972 4835 5021 4914 4948 4967 4854 4937 4781 4912 5019 5099 4838 4868 4952 4920 4962 4923 4931 4954 5016 4951 4979 4906 5007 4887 4852 4900 4939 4987 4973 4873 4939 4972 4969 5021 4999 5015 5026 4979 5033 5020 5100 5080 5007 5061 5001 5072 5069 5076 5115 5084 5084 5176 5040 5194 5156 5069 5192 5197 5303 5119 5186 5207 5199 5174 5188 5203 5235 5246 5314 5240 5299 5364 5322 5170 5220 5357 5345 5244 5214 5233 5181 5248 5240 5201 5179 5162 5281 5357 5372 5261 5200 5097 5151 5160 5045 5007 5033 5103 5077 4995 5034 5119 5142 5189 5123 5129 5144 5094 5147 5048 5111 5094 5135 4976 5046 5034 5088 5034 5096 4927 5023 5034 4959 5100 5022 4895 4886 4871 4918 4918 4948 4954 4954 4897 4944 4975 4976 4901 4966 4957 4987 4970 4953 4991 5064 4993 5007 5031 4918 4859 4893 4888 4997 5021 4999 5036 4984 4971 4961 4921 5008 5025 4957 4831 4956 4995 5058 4973 4853 4846 4930 4986 5031 4866 4896 4956 4972 5027 4915 4965 4903 4895 4967 4912 4871 4942 4995 4954 4982 4965 4915 4897 4921 4908 4851 4898 4947 4865 4852 4884 4881 4906 4888 4888 4887 4869 4914 4981 5006 4976 4999 5000 4968 4925 4942 5013 4971 4797 4874 5011 4955 4953 4837 4843 5051 4864 5015 4994 5038 5101 4901 5031 4957 4913 4925 4995 4848 4936 4989 5071 4901 4963 4915 4890 4907 4927 4841 4859 4892 4837 4886 4878 4912 4915 4826 4925 4945 4915 4942 4930 4849 4846 4876 4899 4918 4887 4923 4938 4838 4891 4928 4912 4876 4903 4847 4903 5010 5000 5000 4829 4944 4856 4863 4944 5037 4978 4848 4943 4865 4891 4928 4965 4722 4836 4864 4986 4881 4869 4836 4966 4860 4866 5053 4903 4850 4799 4827 4810 4874 4943 4899 4757 4777 4867 4887 4995 4900 4838 4886 4912 4870 4916 4899 4868 4894 4892 4892 4857 4883 4861 4938 4834 4868 4840 4887 4878 4889 4814 4901 4979 4803 4988 4866 4811 5000 4982 5019 4780 4848 4729 4808 4833 4909 4903 4876 4842 4828 4781 4894 4843 4867 4865 4845 4878 4847 4868 4829 4885 4899 4860 4913 4900 4904 4904 4874 4900 4825 4861 4909 4947 4866 4867 4924 4962 4896 4875 4796 4906 4923 4933 4826 4836 4929 5091 4955 4888 4808 4924 4871 4775 4824 4883 4728 4828 4652 4802 4978 4990 4950 4967 4728 4826 4874 4786 4887 4812 4858 4809 4864 5002 4917 4837 4885 4853 4711 4754 4853 4968 4953 4937 4886 4832 4859 4871 4880 4889 4846 4807 4861 4826 4848 4870 4844 4817 4865 4827 4802 4875 4931 4902 4851 4895 4904 4876 4764 4733 4931 4943 4910 4816 4879 4879 5045 4886 5018 4753 4888 4866 4812 4735 4960 4889 4777 4767 4758 4782 4842 5032 4872 4892 4798 4866 4916 4905 4844 4875 4809 4851 4935 4937 4820 4810 4907 4947 4890 4804 4904 4901 4876 4890 4806 4831 4896 4988 4887 4948 4931 4898 5016 4954 4842 4855 4837 4939 4933 4950 4899 4832 4882 4861 5049 4940 4897 4995 4904 4983 4984 4989 4839 4983 4971 4960 4880 5048 5129 5004 4942 5010 5094 5126 5063 5075 5054 5051 5074 5049 5014 5132 5202 5172 5164 5179 5214 5216 5183 5241 5270 5282 5254 5297 5393 5356 5351 5429 5497 5415 5448 5477 5519 5495 5423 5520 5448 5503 5464 5549 5528 5611 5578 5554 5404 5452 5560 5610 5511 5404 5402 5435 5415 5469 5372 5378 5331 5237 5275 5359 5322 5256 5250 5239 5245 5200 5222 5175 5117 5145 5236 5146 5110 5180 5127 5004 5006 5130 5081 5097 5083 4988 5029 4947 5034 5035 5112 5062 5072 4944 5078 4960 4930 5087 5122 4908 5005 5028 5075 5067 5048 5041 4979 5189 4937 4952 5049 5084 5037 4976 5005 5118 5052 5027 5003 5011 4990 4896 4906 4996 4992 4924 4902 4944 4927 4976 4971 4994 5037 4913 4916 4891 4968 5035 5056 5021 4926 4997 4997 4945 4982 4925 4991 4995 5024 4950 4938 4929 4891 4974 5014 4902 4919 4978 4940 4965 4964 4899 5029 5069 4972 5065 4959 4978 5057 5008 5008 4951 5011 5066 4878 4892 4940 4888 4908 4944 4918 4870 4916 4919 4922 4945 4932 4865 4865 4890 4941 5026 5051 5026 5076 4992 4890 4911 4895 4879 4872 4948 4927 4964 4949 4955 4960 4855 4923 4932 4873 4820 4879 4910 4917 4845 4930 4975 4942 4926 4881 4925 4949 4890 4892 4893 4858 4950 4881 4919 4956 4976 4943 4938 4903 4843 4843 4940 4882 4928 4949 4885 4783 4841 4875 4870 4859 4866 4925 4850 4877 4863 4860 4875 4882 4867 4806 4904 4884 4860 4943 4953 4978 4892 4946 4889 4896 4881 4843 4882 4901 5090 4884 4918 4843 4840 4933 5019 5025 4860 4829 4847 4881 4889 4792 4829 4956 4995 4995 4947 4939 4870 4896 5017 4943 4894 4915 4940 4920 4911 4928 4971 4999 4985 4958 5026 4999 4983 5012 4974 4965 4993 5003 4932 4949 4986 5087 5091 5035 4973 4955 5022 5054 5059 5027 5018 5100 5090 5197 5056 5057 5169 5114 5108 4957 5015 5155 5033 5266 5167 5161 5140 5264 5150 5192 5280 5174 5218 5250 5345 5365 5397 5211 5245 5418 5437 5388 5386 5435 5458 5482 5443 5412 5507 5541 5437 5479 5488 5432 5427 5456 5376 5509 5546 5400 5413 5465 5411 5519 5606 5522 5471 5317 5522 5418 5488 5378 5373 5371 5330 5392 5442 5386 5284 5378 5378 5367 5298 5242 5290 5348 5371 5270 5240 5274 5245 5176 5252 5320 5268 5303 5235 5190 5198 5277 5250 5277 5248 5267 5172 5168 5186 5210 5191 5203 5207 5205 5129 5159 5135 5243 5208 5167 5154 5159 5120 5083 5188 5335 5184 5280 5167 5175 5124 5233 5281 5240 5191 5201 5140 5110 5139 5171 5123 5077 5260 5085 5176 5042 5169 5265 5091 5057 5087 5039 5021 5072 5189 5168 5068 5059 5061 5047 5074 5021 5045 5070 5006 5062 5067 5036 4997 5041 5050 5018 5070 5076 5028 4971 5060 4950 4973 5005 4963 4890 4987 5020 4945 4877 4975 4948 4895 4876 4973 4883 4983 4989 4928 4942 4965 4957 4981 4876 4908 4907 4914 4926 4936 4900 4819 4926 4880 4894 4848 4837 4826 4901 4869 4920 4922 4947 4874 4916 4885 4922 4992 4949 4977 4904 4921 4849 4840 4905 4853 4860 4898 4865 4891 4884 4894 4853 4898 4941 4877 4836 4911 4840 4983 4950 4842 4897 4950 4857 4850 4745 4811 4906 4907 4817 4829 4902 4776 4835 4779 4885 4876 4801 4860 4819 4826 4782 4774 4848 4783 4893 4849 4890 4848 4829 4832 4797 4763 4836 4842 4836 4830 4832 4838 4796 4851 4843 4837 4806 4666 4708 4780 4815 4855 4843 4860 4878 4952 4794 4798 4821 4838 4888 4837 4829 4784 4692 4867 4987 4960 4846 4819 4857 4731 4730 4755 4940 4938 4831 4914 4838 4733 4813 4861 4852 4898 4915 4802 4875 4849 4880 4858 4799 4828 4873 4891 4927 4845 4849 4891 4825 4820 4804 4784 4878 4944 4866 4879 4873 4891 4789 4851 4798 4692 4824 4909 4861 4806 4824 4787 4837 4807 4940 4820 4813 4892 4789 4906 4779 4869 4946 4798 4860 4811 4917 4815 4921 4800 4829 4876 4896 4738 4807 4795 4980 4853 4798 4879 4902 4913 4880 4894 4878 4880 4807 4786 4833 4864 4883 4884 4939 4881 4842 4878 4818 4901 4917 4787 4799 4811 4938 4940 4978 4856 4888 4859 4974 4947 4943 4764 4895 4834 4859 4881 4920 4890 4976 4925 5005 5038 5055 4957 4938 5028 5042 5106 5077 4926 4932 4948 4964 4930 5029 5062 4995 4979 4966 4950 4946 5018 5016 4951 4965 4949 4936 5044 5065 4938 4897 4896 5017 5053 4918 5008 5001 4961 4969 4966 4962 5011 4980 5034 4961 4943 5047 5077 4996 4978 4998 5049 4991 4897 5001 4971 5033 5050 5076 4959 4977 4852 4887 4983 4929 5049 5112 5069 4984 4957 4964 5031 5005 4919 4902 4961 4985 4950 4979 4969 4903 4923 4897 4901 4938 5032 5074 4961 4811 4918 4994 4900 4896 4961 4913 4913 4907 4960 4913 4941 4958 5044 4955 4938 4845 5001 4828 4822 4871 4794 4898 4861 4892 4954 4847 4892 4864 4818 4931 4989 4864 4858 4844 4849 4925 4901 4986 4932 4786 4838 4816 4794 4827 4803 4865 4849 4804 4813 4859 4844 4931 4958 4898 4819 4765 4864 4876 4819 4865 4908 4882 4860 4729 4812 4759 4746 4744 4730 4871 4901 4894 4853 4701 4745 4912 4751 4782 4749 4680 4930 4919 4832 4870 4801 4858 4933 4865 4870 4633 4756 4751 4916 4823 4857 4813 4828 4886 4783 4756 4719 4790 4822 4755 4708 4785 4860 4800 4826 4812 4755 4797 4805 4727 4719 4855 4860 4813 4848 4857 4748 4676 4803 4793 4793 4744 4764 4744 4757 4782 4755 4694 4757 4720 4793 4716 4776 4845 4875 4844 4827 4805 4909 4858 4849 4758 4868 4782 4754 4811 4772 4694 4680 4748 4753 4772 4816 4880 4802 4676 4719 4730 4790 4741 4834 4818 4778 4736 4812 4841 4770 4741 4742 4770 4735 4724 4668 4717 4711 4715 4872 4861 4731 4724 4825 4840 4782 4865 4799 4776 4828 4789 4868 4753 4800 4731 4679 4694 4678 4659 4696 4807 4841 4789 4731 4831 4792 4690 4716 4684 4759 4772 4736 4738 4773 4794 4737 4688 4752 4706 4728 4784 4856 4829 4734 4673 4694 4826 4851 4803 4750 4726 4749 4768 4734 4704 4705 4693 4775 4717 4772 4755 4785 4855 4809 4830 4763 4665 4674 4752 4554 4694 4731 4711 4676 4785 4843 4809 4783 4604 4667 4757 4676 4720 4800 4715 4690 4710 4643 4688 4794 4751 4785 4642 4694 4707 4737 4679 4758 4735 4787 4730 4748 4865 4831 4782 4707 4661 4781 4822 4783 4734 4789 4755 4677 4656 4711 4722 4778 4691 4714 4646 4793 4751 4789 4778 4722 4632 4673 4777 4657 4817 4770 4811 4698 4781 4646 4699 4720 4606 4852 4740 4876 4676 4667 4609 4620 4712 4744 4745 4746 4685 4803 4786 4642 4700 4731 4771 4717 4759 4745 4806 4840 4787 4738 4700 4713 4766 4740 4721 4752 4745 4797 4837 4753 4664 4775 4758 4691 4658 4656 4738 4749 4834 4761 4697 4669 4752 4658 4846 4816 4811 4867 4770 4750 4820 4718 4656 4754 4710 4889 4737 4710 4722 4780 4836 4726 4684 4633 4698 4712 4680 4733 4710 4706 4813 4789 4749 4799 4704 4711 4774 4751 4731 4738 4751 4721 4735 4784 4770 4719 4688 4743 4765 4753 4792 4739 4646 4731 4829 4849 4772 4644 4761 4627 4696 4915 4770 4780 4792 4736 4823 4765 4808 4773 4672 4778 4771 4923 4786 4633 4778 4785 4788 4736 4715 4880 4803 4800 4825 4861 4841 4872 4912 4824 4806 4879 4922 4834 4785 4842 4875 4880 4833 4831 4816 4731 4779 4796 4847 4830 4813 4787 4703 4708 4766 4865</intensities>
			</dataPoints>
			<nonAmbientPoints type="Temperature" unit="K">
				<measurementTimes unit="seconds" deltaTime="1">0</measurementTimes>
				<nonAmbientValues>298.150</nonAmbientValues>
			</nonAmbientPoints>
		</scan>
	</xrdMeasurement>
</xrdMeasurements>
